Freq.,IR2,fase
1.00000000000000e+000,-5.01029923895741e+001,-1.79946675045877e+002
1.00925288607668e+000,-5.01029922561471e+001,-1.79946181637013e+002
1.01859138805412e+000,-5.01029921202395e+001,-1.79945683662716e+002
1.02801629812647e+000,-5.01029919818052e+001,-1.79945181080745e+002
1.03752841581801e+000,-5.01029918407973e+001,-1.79944673848465e+002
1.04712854805090e+000,-5.01029916971678e+001,-1.79944161922849e+002
1.05681750921366e+000,-5.01029915508681e+001,-1.79943645260471e+002
1.06659612123026e+000,-5.01029914018484e+001,-1.79943123817503e+002
1.07646521362984e+000,-5.01029912500583e+001,-1.79942597549710e+002
1.08642562361707e+000,-5.01029910954461e+001,-1.79942066412451e+002
1.09647819614319e+000,-5.01029909379596e+001,-1.79941530360669e+002
1.10662378397767e+000,-5.01029907775451e+001,-1.79940989348892e+002
1.11686324778056e+000,-5.01029906141483e+001,-1.79940443331226e+002
1.12719745617551e+000,-5.01029904477138e+001,-1.79939892261354e+002
1.13762728582343e+000,-5.01029902781850e+001,-1.79939336092529e+002
1.14815362149688e+000,-5.01029901055045e+001,-1.79938774777572e+002
1.15877735615513e+000,-5.01029899296136e+001,-1.79938208268867e+002
1.16949939101987e+000,-5.01029897504526e+001,-1.79937636518357e+002
1.18032063565173e+000,-5.01029895679608e+001,-1.79937059477543e+002
1.19124200802738e+000,-5.01029893820763e+001,-1.79936477097475e+002
1.20226443461741e+000,-5.01029891927359e+001,-1.79935889328750e+002
1.21338885046498e+000,-5.01029889998754e+001,-1.79935296121508e+002
1.22461619926505e+000,-5.01029888034293e+001,-1.79934697425430e+002
1.23594743344451e+000,-5.01029886033311e+001,-1.79934093189728e+002
1.24738351424295e+000,-5.01029883995128e+001,-1.79933483363146e+002
1.25892541179417e+000,-5.01029881919052e+001,-1.79932867893953e+002
1.27057410520854e+000,-5.01029879804380e+001,-1.79932246729942e+002
1.28233058265602e+000,-5.01029877650392e+001,-1.79931619818418e+002
1.29419584144999e+000,-5.01029875456360e+001,-1.79930987106203e+002
1.30617088813184e+000,-5.01029873221537e+001,-1.79930348539625e+002
1.31825673855641e+000,-5.01029870945166e+001,-1.79929704064515e+002
1.33045441797809e+000,-5.01029868626474e+001,-1.79929053626205e+002
1.34276496113787e+000,-5.01029866264675e+001,-1.79928397169518e+002
1.35518941235104e+000,-5.01029863858967e+001,-1.79927734638769e+002
1.36772882559585e+000,-5.01029861408533e+001,-1.79927065977756e+002
1.38038426460289e+000,-5.01029858912543e+001,-1.79926391129760e+002
1.39315680294531e+000,-5.01029856370149e+001,-1.79925710037533e+002
1.40604752412992e+000,-5.01029853780488e+001,-1.79925022643302e+002
1.41905752168910e+000,-5.01029851142682e+001,-1.79924328888755e+002
1.43218789927355e+000,-5.01029848455836e+001,-1.79923628715043e+002
1.44543977074593e+000,-5.01029845719038e+001,-1.79922922062772e+002
1.45881426027535e+000,-5.01029842931360e+001,-1.79922208872000e+002
1.47231250243272e+000,-5.01029840091854e+001,-1.79921489082227e+002
1.48593564228701e+000,-5.01029837199559e+001,-1.79920762632396e+002
1.49968483550238e+000,-5.01029834253492e+001,-1.79920029460885e+002
1.51356124843621e+000,-5.01029831252654e+001,-1.79919289505501e+002
1.52756605823808e+000,-5.01029828196026e+001,-1.79918542703475e+002
1.54170045294957e+000,-5.01029825082572e+001,-1.79917788991458e+002
1.55596563160508e+000,-5.01029821911235e+001,-1.79917028305516e+002
1.57036280433356e+000,-5.01029818680938e+001,-1.79916260581122e+002
1.58489319246112e+000,-5.01029815390586e+001,-1.79915485753153e+002
1.59955802861468e+000,-5.01029812039062e+001,-1.79914703755882e+002
1.61435855682649e+000,-5.01029808625228e+001,-1.79913914522975e+002
1.62929603263973e+000,-5.01029805147928e+001,-1.79913117987485e+002
1.64437172321494e+000,-5.01029801605979e+001,-1.79912314081844e+002
1.65958690743757e+000,-5.01029797998182e+001,-1.79911502737861e+002
1.67494287602645e+000,-5.01029794323311e+001,-1.79910683886711e+002
1.69044093164327e+000,-5.01029790580119e+001,-1.79909857458934e+002
1.70608238900313e+000,-5.01029786767336e+001,-1.79909023384430e+002
1.72186857498602e+000,-5.01029782883669e+001,-1.79908181592445e+002
1.73780082874938e+000,-5.01029778927800e+001,-1.79907332011574e+002
1.75388050184177e+000,-5.01029774898386e+001,-1.79906474569752e+002
1.77010895831743e+000,-5.01029770794060e+001,-1.79905609194245e+002
1.78648757485206e+000,-5.01029766613429e+001,-1.79904735811647e+002
1.80301774085958e+000,-5.01029762355076e+001,-1.79903854347873e+002
1.81970085860999e+000,-5.01029758017554e+001,-1.79902964728152e+002
1.83653834334836e+000,-5.01029753599392e+001,-1.79902066877024e+002
1.85353162341482e+000,-5.01029749099091e+001,-1.79901160718326e+002
1.87068214036581e+000,-5.01029744515123e+001,-1.79900246175194e+002
1.88799134909630e+000,-5.01029739845934e+001,-1.79899323170053e+002
1.90546071796326e+000,-5.01029735089939e+001,-1.79898391624608e+002
1.92309172891017e+000,-5.01029730245524e+001,-1.79897451459841e+002
1.94088587759279e+000,-5.01029725311045e+001,-1.79896502596004e+002
1.95884467350600e+000,-5.01029720284828e+001,-1.79895544952609e+002
1.97696964011187e+000,-5.01029715165167e+001,-1.79894578448426e+002
1.99526231496889e+000,-5.01029709950326e+001,-1.79893603001470e+002
2.01372424986240e+000,-5.01029704638534e+001,-1.79892618529001e+002
2.03235701093623e+000,-5.01029699227989e+001,-1.79891624947513e+002
2.05116217882558e+000,-5.01029693716856e+001,-1.79890622172725e+002
2.07014134879106e+000,-5.01029688103264e+001,-1.79889610119578e+002
2.08929613085405e+000,-5.01029682385308e+001,-1.79888588702227e+002
2.10862814993330e+000,-5.01029676561049e+001,-1.79887557834032e+002
2.12813904598273e+000,-5.01029670628510e+001,-1.79886517427551e+002
2.14783047413055e+000,-5.01029664585677e+001,-1.79885467394533e+002
2.16770410481971e+000,-5.01029658430501e+001,-1.79884407645912e+002
2.18776162394957e+000,-5.01029652160893e+001,-1.79883338091796e+002
2.20800473301892e+000,-5.01029645774725e+001,-1.79882258641464e+002
2.22843514927032e+000,-5.01029639269830e+001,-1.79881169203353e+002
2.24905460583580e+000,-5.01029632644002e+001,-1.79880069685055e+002
2.26986485188384e+000,-5.01029625894991e+001,-1.79878959993307e+002
2.29086765276779e+000,-5.01029619020509e+001,-1.79877840033981e+002
2.31206479017561e+000,-5.01029612018222e+001,-1.79876709712081e+002
2.33345806228102e+000,-5.01029604885753e+001,-1.79875568931732e+002
2.35504928389603e+000,-5.01029597620684e+001,-1.79874417596170e+002
2.37684028662490e+000,-5.01029590220549e+001,-1.79873255607738e+002
2.39883291901951e+000,-5.01029582682836e+001,-1.79872082867874e+002
2.42102904673620e+000,-5.01029575004989e+001,-1.79870899277106e+002
2.44343055269399e+000,-5.01029567184401e+001,-1.79869704735040e+002
2.46603933723436e+000,-5.01029559218420e+001,-1.79868499140354e+002
2.48885731828241e+000,-5.01029551104341e+001,-1.79867282390790e+002
2.51188643150960e+000,-5.01029542839413e+001,-1.79866054383143e+002
2.53512863049793e+000,-5.01029534420830e+001,-1.79864815013253e+002
2.55858588690567e+000,-5.01029525845736e+001,-1.79863564175996e+002
2.58226019063462e+000,-5.01029517111221e+001,-1.79862301765278e+002
2.60615354999892e+000,-5.01029508214322e+001,-1.79861027674021e+002
2.63026799189541e+000,-5.01029499152019e+001,-1.79859741794158e+002
2.65460556197556e+000,-5.01029489921238e+001,-1.79858444016622e+002
2.67916832481906e+000,-5.01029480518846e+001,-1.79857134231337e+002
2.70395836410887e+000,-5.01029470941653e+001,-1.79855812327209e+002
2.72897778280807e+000,-5.01029461186410e+001,-1.79854478192117e+002
2.75422870333819e+000,-5.01029451249806e+001,-1.79853131712902e+002
2.77971326775932e+000,-5.01029441128469e+001,-1.79851772775358e+002
2.80543363795174e+000,-5.01029430818966e+001,-1.79850401264223e+002
2.83139199579941e+000,-5.01029420317797e+001,-1.79849017063170e+002
2.85759054337497e+000,-5.01029409621401e+001,-1.79847620054795e+002
2.88403150312663e+000,-5.01029398726147e+001,-1.79846210120609e+002
2.91071711806663e+000,-5.01029387628338e+001,-1.79844787141024e+002
2.93764965196156e+000,-5.01029376324210e+001,-1.79843350995350e+002
2.96483138952437e+000,-5.01029364809926e+001,-1.79841901561778e+002
2.99226463660822e+000,-5.01029353081578e+001,-1.79840438717374e+002
3.01995172040205e+000,-5.01029341135189e+001,-1.79838962338066e+002
3.04789498962802e+000,-5.01029328966704e+001,-1.79837472298635e+002
3.07609681474074e+000,-5.01029316571994e+001,-1.79835968472702e+002
3.10455958812839e+000,-5.01029303946854e+001,-1.79834450732722e+002
3.13328572431562e+000,-5.01029291086999e+001,-1.79832918949970e+002
3.16227766016841e+000,-5.01029277988066e+001,-1.79831372994527e+002
3.19153785510080e+000,-5.01029264645611e+001,-1.79829812735277e+002
3.22106879128347e+000,-5.01029251055107e+001,-1.79828238039888e+002
3.25087297385438e+000,-5.01029237211941e+001,-1.79826648774806e+002
3.28095293113123e+000,-5.01029223111418e+001,-1.79825044805242e+002
3.31131121482595e+000,-5.01029208748751e+001,-1.79823425995158e+002
3.34195040026118e+000,-5.01029194119069e+001,-1.79821792207261e+002
3.37287308658873e+000,-5.01029179217407e+001,-1.79820143302986e+002
3.40408189701005e+000,-5.01029164038709e+001,-1.79818479142487e+002
3.43557947899879e+000,-5.01029148577824e+001,-1.79816799584627e+002
3.46736850452536e+000,-5.01029132829507e+001,-1.79815104486960e+002
3.49945167028361e+000,-5.01029116788413e+001,-1.79813393705726e+002
3.53183169791961e+000,-5.01029100449101e+001,-1.79811667095833e+002
3.56451133426249e+000,-5.01029083806027e+001,-1.79809924510849e+002
3.59749335155747e+000,-5.01029066853542e+001,-1.79808165802987e+002
3.63078054770106e+000,-5.01029049585895e+001,-1.79806390823093e+002
3.66437574647838e+000,-5.01029031997228e+001,-1.79804599420636e+002
3.69828179780271e+000,-5.01029014081571e+001,-1.79802791443690e+002
3.73250157795725e+000,-5.01028995832847e+001,-1.79800966738926e+002
3.76703798983914e+000,-5.01028977244864e+001,-1.79799125151597e+002
3.80189396320566e+000,-5.01028958311314e+001,-1.79797266525524e+002
3.83707245492284e+000,-5.01028939025773e+001,-1.79795390703084e+002
3.87257644921622e+000,-5.01028919381698e+001,-1.79793497525199e+002
3.90840895792407e+000,-5.01028899372423e+001,-1.79791586831316e+002
3.94457302075284e+000,-5.01028878991160e+001,-1.79789658459402e+002
3.98107170553503e+000,-5.01028858230993e+001,-1.79787712245921e+002
4.01790810848945e+000,-5.01028837084878e+001,-1.79785748025829e+002
4.05508535448389e+000,-5.01028815545640e+001,-1.79783765632554e+002
4.09260659730016e+000,-5.01028793605971e+001,-1.79781764897984e+002
4.13047501990167e+000,-5.01028771258428e+001,-1.79779745652453e+002
4.16869383470341e+000,-5.01028748495426e+001,-1.79777707724726e+002
4.20726628384450e+000,-5.01028725309244e+001,-1.79775650941985e+002
4.24619563946319e+000,-5.01028701692014e+001,-1.79773575129815e+002
4.28548520397446e+000,-5.01028677635723e+001,-1.79771480112188e+002
4.32513831035015e+000,-5.01028653132208e+001,-1.79769365711447e+002
4.36515832240172e+000,-5.01028628173157e+001,-1.79767231748295e+002
4.40554863506560e+000,-5.01028602750100e+001,-1.79765078041776e+002
4.44631267469115e+000,-5.01028576854412e+001,-1.79762904409262e+002
4.48745389933139e+000,-5.01028550477307e+001,-1.79760710666436e+002
4.52897579903627e+000,-5.01028523609834e+001,-1.79758496627277e+002
4.57088189614882e+000,-5.01028496242878e+001,-1.79756262104046e+002
4.61317574560386e+000,-5.01028468367155e+001,-1.79754006907265e+002
4.65586093522966e+000,-5.01028439973205e+001,-1.79751730845709e+002
4.69894108605222e+000,-5.01028411051396e+001,-1.79749433726382e+002
4.74241985260252e+000,-5.01028381591914e+001,-1.79747115354505e+002
4.78630092322646e+000,-5.01028351584765e+001,-1.79744775533500e+002
4.83058802039780e+000,-5.01028321019766e+001,-1.79742414064969e+002
4.87528490103394e+000,-5.01028289886549e+001,-1.79740030748683e+002
4.92039535681459e+000,-5.01028258174551e+001,-1.79737625382561e+002
4.96592321450344e+000,-5.01028225873011e+001,-1.79735197762655e+002
5.01187233627280e+000,-5.01028192970970e+001,-1.79732747683131e+002
5.05824662003122e+000,-5.01028159457266e+001,-1.79730274936254e+002
5.10504999975414e+000,-5.01028125320529e+001,-1.79727779312367e+002
5.15228644581765e+000,-5.01028090549175e+001,-1.79725260599878e+002
5.19995996533524e+000,-5.01028055131409e+001,-1.79722718585237e+002
5.24807460249781e+000,-5.01028019055213e+001,-1.79720153052923e+002
5.29663443891666e+000,-5.01027982308348e+001,-1.79717563785421e+002
5.34564359396980e+000,-5.01027944878347e+001,-1.79714950563207e+002
5.39510622515136e+000,-5.01027906752510e+001,-1.79712313164729e+002
5.44502652842430e+000,-5.01027867917903e+001,-1.79709651366387e+002
5.49540873857634e+000,-5.01027828361350e+001,-1.79706964942515e+002
5.54625712957920e+000,-5.01027788069431e+001,-1.79704253665362e+002
5.59757601495120e+000,-5.01027747028476e+001,-1.79701517305072e+002
5.64936974812312e+000,-5.01027705224561e+001,-1.79698755629666e+002
5.70164272280757e+000,-5.01027662643504e+001,-1.79695968405022e+002
5.75439937337167e+000,-5.01027619270858e+001,-1.79693155394853e+002
5.80764417521322e+000,-5.01027575091908e+001,-1.79690316360692e+002
5.86138164514039e+000,-5.01027530091667e+001,-1.79687451061865e+002
5.91561634175484e+000,-5.01027484254866e+001,-1.79684559255478e+002
5.97035286583847e+000,-5.01027437565957e+001,-1.79681640696393e+002
6.02559586074368e+000,-5.01027390009099e+001,-1.79678695137204e+002
6.08135001278728e+000,-5.01027341568158e+001,-1.79675722328223e+002
6.13762005164805e+000,-5.01027292226700e+001,-1.79672722017455e+002
6.19441075076792e+000,-5.01027241967985e+001,-1.79669693950577e+002
6.25172692775697e+000,-5.01027190774965e+001,-1.79666637870916e+002
6.30957344480204e+000,-5.01027138630270e+001,-1.79663553519429e+002
6.36795520907927e+000,-5.01027085516212e+001,-1.79660440634681e+002
6.42687717317031e+000,-5.01027031414770e+001,-1.79657298952822e+002
6.48634433548250e+000,-5.01026976307592e+001,-1.79654128207566e+002
6.54636174067287e+000,-5.01026920175983e+001,-1.79650928130166e+002
6.60693448007608e+000,-5.01026863000899e+001,-1.79647698449395e+002
6.66806769213634e+000,-5.01026804762946e+001,-1.79644438891520e+002
6.72976656284330e+000,-5.01026745442365e+001,-1.79641149180282e+002
6.79203632617197e+000,-5.01026685019035e+001,-1.79637829036870e+002
6.85488226452674e+000,-5.01026623472455e+001,-1.79634478179898e+002
6.91830970918949e+000,-5.01026560781748e+001,-1.79631096325383e+002
6.98232404077185e+000,-5.01026496925648e+001,-1.79627683186721e+002
7.04693068967160e+000,-5.01026431882491e+001,-1.79624238474660e+002
7.11213513653343e+000,-5.01026365630213e+001,-1.79620761897279e+002
7.17794291271375e+000,-5.01026298146340e+001,-1.79617253159961e+002
7.24435960075004e+000,-5.01026229407978e+001,-1.79613711965371e+002
7.31139083483431e+000,-5.01026159391812e+001,-1.79610138013428e+002
7.37904230129115e+000,-5.01026088074089e+001,-1.79606531001282e+002
7.44731973906003e+000,-5.01026015430616e+001,-1.79602890623288e+002
7.51622894018220e+000,-5.01025941436753e+001,-1.79599216570979e+002
7.58577575029199e+000,-5.01025866067398e+001,-1.79595508533042e+002
7.65596606911271e+000,-5.01025789296987e+001,-1.79591766195290e+002
7.72680585095718e+000,-5.01025711099476e+001,-1.79587989240638e+002
7.79830110523274e+000,-5.01025631448341e+001,-1.79584177349076e+002
7.87045789695114e+000,-5.01025550316564e+001,-1.79580330197638e+002
7.94328234724298e+000,-5.01025467676623e+001,-1.79576447460380e+002
8.01678063387695e+000,-5.01025383500488e+001,-1.79572528808352e+002
8.09095899178399e+000,-5.01025297759606e+001,-1.79568573909568e+002
8.16582371358609e+000,-5.01025210424893e+001,-1.79564582428978e+002
8.24138115013019e+000,-5.01025121466727e+001,-1.79560554028443e+002
8.31763771102688e+000,-5.01025030854932e+001,-1.79556488366706e+002
8.39459986519415e+000,-5.01024938558775e+001,-1.79552385099360e+002
8.47227414140614e+000,-5.01024844546949e+001,-1.79548243878823e+002
8.55066712884701e+000,-5.01024748787567e+001,-1.79544064354306e+002
8.62978547766988e+000,-5.01024651248150e+001,-1.79539846171788e+002
8.70963589956099e+000,-5.01024551895613e+001,-1.79535588973981e+002
8.79022516830903e+000,-5.01024450696258e+001,-1.79531292400302e+002
8.87156012037980e+000,-5.01024347615762e+001,-1.79526956086846e+002
8.95364765549613e+000,-5.01024242619163e+001,-1.79522579666351e+002
9.03649473722321e+000,-5.01024135670848e+001,-1.79518162768170e+002
9.12010839355929e+000,-5.01024026734544e+001,-1.79513705018239e+002
9.20449571753191e+000,-5.01023915773306e+001,-1.79509206039046e+002
9.28966386779957e+000,-5.01023802749498e+001,-1.79504665449599e+002
9.37562006925901e+000,-5.01023687624788e+001,-1.79500082865397e+002
9.46237161365814e+000,-5.01023570360132e+001,-1.79495457898393e+002
9.54992586021457e+000,-5.01023450915759e+001,-1.79490790156965e+002
9.63829023623992e+000,-5.01023329251159e+001,-1.79486079245883e+002
9.72747223776987e+000,-5.01023205325073e+001,-1.79481324766275e+002
9.81747943020006e+000,-5.01023079095470e+001,-1.79476526315594e+002
9.90831944892790e+000,-5.01022950519542e+001,-1.79471683487587e+002
1.00000000000002e+001,-5.01022819553685e+001,-1.79466795872255e+002
1.00925288607671e+001,-5.01022686153485e+001,-1.79461863055826e+002
1.01859138805414e+001,-5.01022550273702e+001,-1.79456884620717e+002
1.02801629812650e+001,-5.01022411868257e+001,-1.79451860145497e+002
1.03752841581804e+001,-5.01022270890214e+001,-1.79446789204858e+002
1.04712854805092e+001,-5.01022127291765e+001,-1.79441671369574e+002
1.05681750921368e+001,-5.01021981024216e+001,-1.79436506206466e+002
1.06659612123028e+001,-5.01021832037966e+001,-1.79431293278371e+002
1.07646521362986e+001,-5.01021680282493e+001,-1.79426032144100e+002
1.08642562361709e+001,-5.01021525706338e+001,-1.79420722358404e+002
1.09647819614321e+001,-5.01021368257086e+001,-1.79415363471934e+002
1.10662378397769e+001,-5.01021207881347e+001,-1.79409955031211e+002
1.11686324778059e+001,-5.01021044524742e+001,-1.79404496578579e+002
1.12719745617554e+001,-5.01020878131878e+001,-1.79398987652175e+002
1.13762728582346e+001,-5.01020708646336e+001,-1.79393427785885e+002
1.14815362149691e+001,-5.01020536010651e+001,-1.79387816509308e+002
1.15877735615515e+001,-5.01020360166286e+001,-1.79382153347719e+002
1.16949939101990e+001,-5.01020181053620e+001,-1.79376437822025e+002
1.18032063565176e+001,-5.01019998611925e+001,-1.79370669448728e+002
1.19124200802740e+001,-5.01019812779343e+001,-1.79364847739887e+002
1.20226443461744e+001,-5.01019623492870e+001,-1.79358972203072e+002
1.21338885046501e+001,-5.01019430688330e+001,-1.79353042341331e+002
1.22461619926508e+001,-5.01019234300355e+001,-1.79347057653142e+002
1.23594743344454e+001,-5.01019034262366e+001,-1.79341017632376e+002
1.24738351424297e+001,-5.01018830506545e+001,-1.79334921768251e+002
1.25892541179420e+001,-5.01018622963816e+001,-1.79328769545296e+002
1.27057410520857e+001,-5.01018411563819e+001,-1.79322560443303e+002
1.28233058265605e+001,-5.01018196234889e+001,-1.79316293937287e+002
1.29419584145002e+001,-5.01017976904029e+001,-1.79309969497442e+002
1.30617088813187e+001,-5.01017753496890e+001,-1.79303586589097e+002
1.31825673855644e+001,-5.01017525937738e+001,-1.79297144672673e+002
1.33045441797813e+001,-5.01017294149437e+001,-1.79290643203638e+002
1.34276496113790e+001,-5.01017058053416e+001,-1.79284081632463e+002
1.35518941235107e+001,-5.01016817569646e+001,-1.79277459404575e+002
1.36772882559588e+001,-5.01016572616614e+001,-1.79270775960314e+002
1.38038426460292e+001,-5.01016323111293e+001,-1.79264030734886e+002
1.39315680294534e+001,-5.01016068969113e+001,-1.79257223158317e+002
1.40604752412995e+001,-5.01015810103936e+001,-1.79250352655404e+002
1.41905752168913e+001,-5.01015546428025e+001,-1.79243418645674e+002
